Pfeiffer read started at 2017-07-11 10:13:53 (EDT)
Time (s)	Pressure (Torr)
1499782435	5.92e-08
1499782495	1.04e-07
1499782556	1.56e-07
1499782616	2.18e-07
1499782676	2.39e-07
1499782737	2.59e-07
1499782797	2.75e-07
1499782858	2.83e-07
1499782918	2.89e-07
1499782979	2.97e-07
1499783039	3.04e-07
1499783100	3.13e-07
1499783160	3.2e-07
1499783220	3.27e-07
1499783281	3.34e-07
1499783341	3.41e-07
1499783402	3.48e-07
1499783462	3.54e-07
1499783523	3.6e-07
1499783583	3.66e-07
1499783644	3.72e-07
1499783704	3.79e-07
1499783764	3.84e-07
1499783825	3.9e-07
1499783885	3.96e-07
1499783946	4.01e-07
1499784006	4.06e-07
1499784067	4.12e-07
1499784127	4.17e-07
1499784188	4.21e-07
1499784248	4.26e-07
1499784308	4.31e-07
1499784369	4.36e-07
1499784429	4.41e-07
1499784490	4.44e-07
1499784550	4.49e-07
1499784611	4.53e-07
1499784671	4.57e-07
1499784732	4.59e-07
1499784792	4.56e-07
1499784853	4.59e-07
1499784913	4.55e-07
1499784973	4.43e-07
1499785034	4.22e-07
1499785094	4.31e-07
1499785155	4.4e-07
1499785215	4.3e-07
1499785276	4.05e-07
1499785336	4.12e-07
1499785397	3.96e-07
1499785457	4.11e-07
1499785517	4.22e-07
1499785578	4.29e-07
1499785638	4.35e-07
1499785699	4.4e-07
1499785759	4.37e-07
1499785820	4.37e-07
1499785880	4.38e-07
1499785941	4.4e-07
1499786001	4.42e-07
1499786061	4.46e-07
1499786122	4.48e-07
1499788336	0.0
1499788397	1.06e-06
1499788457	8.15e-07
1499788518	7.03e-07
1499788578	6.44e-07
1499788639	6.01e-07
1499788699	5.63e-07
1499788759	5.27e-07
1499788820	4.88e-07
1499788880	4.46e-07
1499788941	4.04e-07
1499789001	3.56e-07
1499789062	3.28e-07
1499789122	2.37e-07
1499789183	1.33e-07
1499789243	1.3e-07
1499789303	1.39e-07
1499789364	3.5e-07
1499789424	6.26e-07
1499789485	7.37e-07
Pfeiffer read started at 2017-07-11 14:24:27 (EDT)
Time (s)	Pressure (Torr)
1499797469	0.015
1499797530	5.2e-07
1499797590	4.86e-07
1499797650	4.68e-07
1499797711	4.51e-07
1499797771	4.34e-07
1499797832	4.15e-07
1499797892	3.97e-07
1499797953	3.76e-07
1499798013	3.45e-07
1499798074	1.66e-07
1499798134	1.04e-07
1499798194	9.51e-08
1499798255	9.63e-08
Pfeiffer read started at 2017-07-11 15:50:22 (EDT)
Time (s)	Pressure (Torr)
1499802624	4.48e-07
Pfeiffer read started at 2017-07-11 16:12:56 (EDT)
Time (s)	Pressure (Torr)
1499803978	6.74e-07
Pfeiffer read started at 2017-07-11 16:30:39 (EDT)
Time (s)	Pressure (Torr)
1499805041	8.87e-08
1499805102	8.61e-08
1499805162	1.29e-07
1499805223	2.18e-07
1499805283	1.16e-06
1499805344	8.38e-07
1499805404	5.85e-07
1499805464	4.94e-07
1499805525	4.7e-07
1499805585	4.34e-07
1499805646	4.2e-07
Pfeiffer read started at 2017-07-11 16:43:28 (EDT)
Time (s)	Pressure (Torr)
1499805810	4.05e-07
1499805870	3.99e-07
1499805931	4.01e-07
1499805991	3.97e-07
1499806051	3.97e-07
1499806112	3.98e-07
1499806172	3.96e-07
1499806233	4.02e-07
1499806293	4.01e-07
1499806354	4.08e-07
1499806414	4.07e-07
1499806475	4.13e-07
1499806535	4.15e-07
1499806595	4.17e-07
1499806656	4.21e-07
1499806716	4.21e-07
1499806777	4.19e-07
1499806837	4.18e-07
1499806898	4.07e-07
1499806958	4.06e-07
1499807019	3.88e-07
1499807079	3.87e-07
1499807139	3.71e-07
1499807200	3.67e-07
1499807260	3.63e-07
1499807321	3.54e-07
1499807381	3.63e-07
1499807442	3.57e-07
Pfeiffer read started at 2017-07-11 17:54:56 (EDT)
Time (s)	Pressure (Torr)
1499810098	3.84e-07
1499810159	3.46e-07
1499810219	1.46e-07
1499810280	7.69e-08
1499810340	5.93e-08
1499810401	5.46e-08
1499810461	5.58e-08
1499810521	6.11e-08
1499810582	5.5e-08
1499810642	5.56e-08
1499810703	5.76e-08
1499810763	6.38e-08
1499810824	7.14e-08
1499810884	1.03e-07
1499810945	1.09e-07
1499811005	1.31e-07
1499811065	1.64e-07
1499811126	9.99e-07
1499811186	5.27e-07
1499811247	4.49e-07
1499811307	4.04e-07
1499811368	3.97e-07
1499811428	3.78e-07
1499811489	3.77e-07
Pfeiffer read started at 2017-07-11 18:41:48 (EDT)
Time (s)	Pressure (Torr)
1499812910	3.87e-07
Pfeiffer read started at 2017-07-11 18:42:53 (EDT)
Time (s)	Pressure (Torr)
1499812975	3.72e-07
1499813035	3.6e-07
1499813096	3.62e-07
Pfeiffer read started at 2017-07-11 19:20:53 (EDT)
Time (s)	Pressure (Torr)
1499815255	1.38e-07
1499815315	6.11e-07
1499815375	5.75e-07
1499815436	3.88e-07
1499815496	3.35e-07
1499815557	3.33e-07
1499815617	3.15e-07
1499815678	3.12e-07
1499815738	3.12e-07
1499815799	3.07e-07
1499815859	3.13e-07
1499815919	3.09e-07
1499815980	3.09e-07
1499816040	3.06e-07
1499816101	2.91e-07
1499816161	2.69e-07
1499816222	1.47e-07
1499816282	8.17e-08
1499816343	7.42e-08
1499816403	6.65e-08
1499816463	7.15e-08
1499816524	6.97e-08
1499816584	8.38e-08
1499816645	1.4e-07
1499816705	2.16e-07
1499816766	7.03e-07
1499816826	3.85e-07
1499816887	3.51e-07
1499816947	3.29e-07
Pfeiffer read started at 2017-07-11 20:14:31 (EDT)
Time (s)	Pressure (Torr)
1499818473	3.27e-07
1499818533	3.29e-07
1499818593	3.32e-07
1499818654	3.34e-07
1499818714	3.36e-07
1499818775	3.38e-07
1499818835	3.4e-07
1499818896	3.42e-07
1499818956	3.44e-07
1499819017	3.45e-07
1499819077	3.47e-07
1499819138	3.49e-07
1499819198	3.51e-07
1499819258	3.53e-07
1499819319	3.54e-07
1499819379	3.56e-07
1499819440	3.57e-07
1499819500	3.58e-07
1499819561	3.6e-07
1499819621	3.61e-07
1499819682	3.63e-07
1499819742	3.63e-07
1499819802	3.65e-07
1499819863	3.66e-07
1499819923	3.68e-07
1499819984	3.69e-07
1499820044	3.69e-07
1499820105	3.67e-07
1499820165	3.66e-07
1499820226	3.64e-07
1499820286	3.63e-07
1499820346	3.63e-07
1499820407	3.63e-07
1499820467	3.64e-07
1499820528	3.64e-07
1499829789	5.2e-07
1499829853	5.22e-07
1499829913	5.23e-07
1499829974	5.24e-07
1499830034	5.25e-07
1499830094	5.26e-07
1499830155	5.27e-07
1499830215	5.29e-07
1499830276	5.3e-07
1499830336	5.31e-07
1499830397	5.32e-07
1499830457	5.33e-07
1499830518	5.35e-07
1499830578	5.35e-07
1499830638	5.36e-07
1499830699	5.38e-07
1499830759	5.39e-07
1499830820	5.4e-07
1499830880	5.41e-07
1499830941	5.42e-07
1499831001	5.43e-07
1499831062	5.44e-07
1499831122	5.44e-07
1499831183	5.45e-07
1499831243	5.47e-07
1499831303	5.47e-07
1499831364	5.48e-07
1499831424	5.49e-07
1499831485	5.5e-07
1499831545	5.51e-07
1499842814	6.5e-07
1499842878	6.5e-07
1499842938	6.5e-07
1499842999	6.51e-07
1499843059	6.51e-07
